Time [s];Acceleration [m/s²]
0.000000;-1.920661
0.000030;0.907933
0.000060;3.118851
0.000090;4.890883
0.000120;5.761676
0.000150;5.013911
0.000180;3.252202
0.000210;1.422706
0.000240;-0.471351
0.000270;-1.707551
0.000300;-1.801447
0.000330;-1.137960
0.000360;-0.146927
0.000390;0.859771
0.000420;1.900953
0.000450;3.049150
0.000480;3.440175
0.000510;3.069395
0.000540;2.552976
0.000570;1.563498
0.000600;0.188331
0.000630;-0.791708
0.000660;-0.936879
0.000690;-0.272410
0.000720;0.758794
0.000750;2.059676
0.000780;3.127667
0.000810;3.963697
0.000840;3.681345
0.000870;2.786464
0.000900;1.551652
0.000930;0.416030
0.000960;-0.542891
0.000990;-0.980444
0.001020;-1.537595
0.001050;-1.755931
0.001080;-1.320332
0.001110;-0.505784
0.001140;0.187079
0.001170;0.749990
0.001200;1.177416
0.001230;1.151636
0.001260;1.163779
0.001290;1.400284
0.001320;1.365999
0.001350;1.162628
0.001380;0.884064
0.001410;0.508623
0.001440;-0.416593
0.001470;-1.954436
0.001500;-3.174955
0.001530;-3.658565
0.001560;-3.638298
0.001590;-3.026709
0.001620;-1.276052
0.001650;1.234613
0.001680;3.622692
0.001710;5.014234
0.001740;5.007033
0.001770;3.712621
0.001800;1.320574
0.001830;-1.807278
0.001860;-4.025103
0.001890;-4.968225
0.001920;-5.312357
0.001950;-4.809554
0.001980;-3.345479
0.002010;-1.585705
0.002040;-0.211543
0.002070;0.274765
0.002100;0.403591
0.002130;0.154010
0.002160;-0.524100
0.002190;-1.124955
0.002220;-1.089730
0.002250;-0.504033
0.002280;-0.103012
0.002310;-0.155883
0.002340;-0.551525
0.002370;-1.377696
0.002400;-2.739695
0.002430;-3.734181
0.002460;-3.975635
0.002490;-3.570352
0.002520;-2.754505
0.002550;-1.054016
0.002580;1.056112
0.002610;3.034296
0.002640;4.454123
0.002670;5.216115
0.002700;5.018555
0.002730;3.839594
0.002760;1.627629
0.002790;-0.790507
0.002820;-2.678537
0.002850;-3.584055
0.002880;-3.713401
0.002910;-2.825200
0.002940;-0.994898
0.002970;0.590379
0.003000;2.187462
0.003030;3.060784
0.003060;2.906718
0.003090;2.125562
0.003120;1.549283
0.003150;0.680370
0.003180;0.101713
0.003210;0.247406
0.003240;0.639343
0.003270;1.232856
0.003300;2.118131
0.003330;2.408828
0.003360;2.546098
0.003390;2.249936
0.003420;1.474613
0.003450;0.386428
0.003480;-0.770090
0.003510;-1.677929
0.003540;-2.048904
0.003570;-1.823929
0.003600;-0.142065
0.003630;1.617576
0.003660;2.380137
0.003690;2.878470
0.003720;3.234948
0.003750;2.909936
0.003780;1.675905
0.003810;0.621082
0.003840;0.576187
0.003870;0.105817
0.003900;-0.476893
0.003930;-1.058817
0.003960;-1.309295
0.003990;-0.689809
0.004020;-0.409118
0.004050;-0.611411
0.004080;-0.106642
0.004110;0.638326
0.004140;0.993702
0.004170;1.351189
0.004200;1.199348
0.004230;0.666358
0.004260;0.206807
0.004290;-0.464974
0.004320;-1.367593
0.004350;-2.373500
0.004380;-3.324129
0.004410;-3.750612
0.004440;-3.797606
0.004470;-3.945831
0.004500;-3.377145
0.004530;-1.918472
0.004560;-0.245212
0.004590;1.295273
0.004620;2.732347
0.004650;3.039867
0.004680;2.233300
0.004710;0.733071
0.004740;-1.018153
0.004770;-2.414375
0.004800;-2.787632
0.004830;-2.703004
0.004860;-1.945555
0.004890;-0.941144
0.004920;-0.373427
0.004950;-0.320257
0.004980;-0.625656
0.005010;-1.086846
0.005040;-1.257637
0.005070;-0.974714
0.005100;-0.173601
0.005130;0.415434
0.005160;1.209300
0.005190;2.091038
0.005220;2.465804
0.005250;2.713806
0.005280;2.836728
0.005310;2.686229
0.005340;2.522351
0.005370;2.417078
0.005400;1.460814
0.005430;-0.080767
0.005460;-1.169302
0.005490;-1.820617
0.005520;-2.119097
0.005550;-1.854561
0.005580;-0.980619
0.005610;0.415771
0.005640;1.611212
0.005670;2.114218
0.005700;2.058623
0.005730;1.564225
0.005760;0.556306
0.005790;-1.001235
0.005820;-2.540613
0.005850;-3.354800
0.005880;-3.776752
0.005910;-3.923475
0.005940;-3.694744
0.005970;-3.343926
0.006000;-2.646208
0.006030;-1.808044
0.006060;-1.039531
0.006090;-0.755150
0.006120;0.085310
0.006150;0.255693
0.006180;0.110031
0.006210;-0.281578
0.006240;-1.128955
0.006270;-2.143454
0.006300;-2.460396
0.006330;-2.553746
0.006360;-2.499338
0.006390;-1.158061
0.006420;0.091697
0.006450;0.332787
0.006480;0.379026
0.006510;-0.222910
0.006540;-1.295438
0.006570;-2.097142
0.006600;-2.862847
0.006630;-3.130968
0.006660;-2.643581
0.006690;-1.494883
0.006720;-0.194404
0.006750;1.566188
0.006780;2.862887
0.006810;3.676047
0.006840;3.749765
0.006870;2.813267
0.006900;1.254457
0.006930;0.241106
0.006960;-0.484774
0.006990;-0.524847
0.007020;0.462327
0.007050;1.940940
0.007080;3.295621
0.007110;4.576441
0.007140;5.295204
0.007170;4.979419
0.007200;3.842006
0.007230;2.616900
0.007260;1.529548
0.007290;0.858240
0.007320;0.818087
0.007350;1.936977
0.007380;4.198750
0.007410;6.375599
0.007440;7.460408
0.007470;7.471825
0.007500;6.707792
0.007530;5.098631
0.007560;3.136999
0.007590;1.664036
0.007620;1.581527
0.007650;1.896083
0.007680;1.389426
0.007710;-0.095191
0.007740;-1.901017
0.007770;-4.065255
0.007800;-6.341390
0.007830;-8.064135
0.007860;-8.328356
0.007890;-7.128500
0.007920;-5.048620
0.007950;-2.598303
0.007980;-0.207060
0.008010;1.133043
0.008040;0.896106
0.008070;-1.027809
0.008100;-4.187740
0.008130;-6.666464
0.008160;-8.781231
0.008190;-10.075514
0.008220;-9.497778
0.008250;-7.566580
0.008280;-5.421926
0.008310;-2.951970
0.008340;-0.807890
0.008370;0.452687
0.008400;-0.072377
0.008430;-1.757050
0.008460;-3.624624
0.008490;-5.916248
0.008520;-8.237193
0.008550;-9.242130
0.008580;-8.798404
0.008610;-7.705420
0.008640;-6.269238
0.008670;-4.018022
0.008700;-1.882960
0.008730;-0.258518
0.008760;0.437350
0.008790;0.515073
0.008820;0.455649
0.008850;0.350620
0.008880;0.034727
0.008910;-0.007085
0.008940;0.686600
0.008970;0.957681
0.009000;0.901505
0.009030;0.492304
0.009060;0.326059
0.009090;0.038489
0.009120;0.093793
0.009150;-0.015254
0.009180;0.477010
0.009210;1.110389
0.009240;2.127739
0.009270;3.425643
0.009300;4.145061
0.009330;4.131172
0.009360;4.055077
0.009390;4.081804
0.009420;4.298549
0.009450;4.516736
0.009480;4.501385
0.009510;4.427705
0.009540;4.468876
0.009570;3.686485
0.009600;2.977726
0.009630;3.058687
0.009660;3.164663
0.009690;3.586162
0.009720;4.364453
0.009750;5.066536
0.009780;5.220443
0.009810;4.988022
0.009840;4.401194
0.009870;3.716055
0.009900;2.744640
0.009930;1.702176
0.009960;0.892115
0.009990;0.739198
0.010020;0.720872
0.010050;1.129520
0.010080;1.239475
0.010110;1.140467
0.010140;0.517116
0.010170;-0.122357
0.010200;-0.526427
0.010230;-0.491642
0.010260;0.157716
0.010290;1.244803
0.010320;2.444668
0.010350;2.974128
0.010380;2.618900
0.010410;0.888902
0.010440;-2.057671
0.010470;-6.221567
0.010500;-10.399250
0.010530;-13.780642
0.010560;-15.635579
0.010590;-15.512651
0.010620;-13.132709
0.010650;-8.653012
0.010680;-3.236548
0.010710;1.812945
0.010740;5.910715
0.010770;7.832633
0.010800;6.568334
0.010830;2.708607
0.010860;-2.543442
0.010890;-7.705841
0.010920;-11.857628
0.010950;-13.662314
0.010980;-12.453629
0.011010;-8.761656
0.011040;-3.860095
0.011070;0.505220
0.011100;3.308705
0.011130;4.352617
0.011160;3.161336
0.011190;0.441562
0.011220;-2.176985
0.011250;-3.778921
0.011280;-4.550243
0.011310;-3.609225
0.011340;-2.055503
0.011370;0.082493
0.011400;1.470351
0.011430;1.846013
0.011460;1.729127
0.011490;1.665806
0.011520;1.341570
0.011550;1.745782
0.011580;3.492013
0.011610;5.095930
0.011640;5.790050
0.011670;6.102087
0.011700;6.143081
0.011730;5.907774
0.011760;4.745582
0.011790;2.761425
0.011820;0.588417
0.011850;-1.046963
0.011880;-2.140701
0.011910;-2.004017
0.011940;-0.407259
0.011970;1.933924
0.012000;4.107306
0.012030;6.086775
0.012060;7.660715
0.012090;7.708227
0.012120;6.066126
0.012150;3.568767
0.012180;1.227642
0.012210;-0.689848
0.012240;-2.129067
0.012270;-2.888056
0.012300;-2.617547
0.012330;-1.762467
0.012360;-0.808886
0.012390;0.534608
0.012420;1.948866
0.012450;2.907305
0.012480;3.523367
0.012510;3.684230
0.012540;3.382270
0.012570;2.524730
0.012600;1.595146
0.012630;0.266929
0.012660;-1.168976
0.012690;-2.304021
0.012720;-3.403190
0.012750;-4.764410
0.012780;-5.949039
0.012810;-6.865953
0.012840;-7.560176
0.012870;-7.861370
0.012900;-7.472845
0.012930;-6.155649
0.012960;-4.494342
0.012990;-2.659682
0.013020;-1.070775
0.013050;0.556852
0.013080;1.292743
0.013110;0.842350
0.013140;-0.236192
0.013170;-1.572679
0.013200;-3.725669
0.013230;-6.208751
0.013260;-7.792881
0.013290;-8.538707
0.013320;-8.385457
0.013350;-6.367120
0.013380;-3.018178
0.013410;0.451252
0.013440;3.070559
0.013470;4.233868
0.013500;3.855008
0.013530;2.267144
0.013560;0.232024
0.013590;-1.618530
0.013620;-2.640239
0.013650;-2.411455
0.013680;-1.013902
0.013710;0.813592
0.013740;2.498723
0.013770;3.021929
0.013800;2.592441
0.013830;1.059080
0.013860;-1.271413
0.013890;-3.039062
0.013920;-2.788237
0.013950;-0.729817
0.013980;2.678752
0.014010;6.384924
0.014040;9.234328
0.014070;10.507939
0.014100;9.441626
0.014130;6.251435
0.014160;2.239723
0.014190;-0.659911
0.014220;-2.208190
0.014250;-1.827177
0.014280;-0.085090
0.014310;2.250537
0.014340;4.661857
0.014370;6.336987
0.014400;6.532220
0.014430;6.158363
0.014460;4.832048
0.014490;2.388282
0.014520;0.317711
0.014550;-0.561656
0.014580;-0.878924
0.014610;-0.176517
0.014640;1.581690
0.014670;3.149048
0.014700;4.274525
0.014730;4.904179
0.014760;4.401399
0.014790;3.202617
0.014820;1.712282
0.014850;0.150841
0.014880;-1.024110
0.014910;-1.350111
0.014940;-1.343126
0.014970;-0.883650
0.015000;0.544500
0.015030;1.636571
0.015060;1.583422
0.015090;0.787856
0.015120;-0.495799
0.015150;-2.635430
0.015180;-5.188493
0.015210;-7.623066
0.015240;-8.970426
0.015270;-9.271563
0.015300;-8.243802
0.015330;-5.820466
0.015360;-3.104203
0.015390;-1.386255
0.015420;-0.582182
0.015450;-0.925436
0.015480;-2.281948
0.015510;-4.429483
0.015540;-6.456079
0.015570;-7.768790
0.015600;-8.000659
0.015630;-7.260856
0.015660;-5.324891
0.015690;-2.648535
0.015720;-0.112771
0.015750;1.933100
0.015780;2.685468
0.015810;2.498289
0.015840;1.077950
0.015870;-1.345865
0.015900;-3.552407
0.015930;-5.096134
0.015960;-5.790535
0.015990;-5.181889
0.016020;-2.768828
0.016050;0.760825
0.016080;4.405381
0.016110;7.255612
0.016140;8.656009
0.016170;8.050981
0.016200;5.361032
0.016230;2.040807
0.016260;-0.667371
0.016290;-2.431542
0.016320;-3.055124
0.016350;-2.097108
0.016380;0.241248
0.016410;2.492122
0.016440;4.025334
0.016470;4.914068
0.016500;5.210064
0.016530;4.834907
0.016560;4.496577
0.016590;4.729952
0.016620;5.933399
0.016650;7.023327
0.016680;7.318288
0.016710;7.006089
0.016740;6.572833
0.016770;5.153425
0.016800;3.257678
0.016830;1.805363
0.016860;1.018300
0.016890;0.476334
0.016920;0.319289
0.016950;0.474320
0.016980;1.231251
0.017010;2.424948
0.017040;3.430215
0.017070;4.443686
0.017100;5.637852
0.017130;6.121435
0.017160;6.218690
0.017190;5.953487
0.017220;4.892962
0.017250;3.404916
0.017280;1.494223
0.017310;-0.216844
0.017340;-1.849063
0.017370;-3.066656
0.017400;-4.002192
0.017430;-3.996350
0.017460;-3.533699
0.017490;-2.740159
0.017520;-1.736987
0.017550;-0.712686
0.017580;-0.268229
0.017610;0.089466
0.017640;-0.107330
0.017670;-0.839128
0.017700;-1.668785
0.017730;-2.539295
0.017760;-3.385381
0.017790;-3.997137
0.017820;-4.204737
0.017850;-4.323769
0.017880;-4.378975
0.017910;-4.384524
0.017940;-4.565484
0.017970;-4.965285
0.018000;-5.915853
0.018030;-7.017439
0.018060;-8.050204
0.018090;-8.839410
0.018120;-8.869458
0.018150;-8.136372
0.018180;-6.215837
0.018210;-3.788940
0.018240;-1.193195
0.018270;0.625294
0.018300;1.218885
0.018330;0.694267
0.018360;-1.085436
0.018390;-3.256144
0.018420;-4.791602
0.018450;-5.314352
0.018480;-5.028000
0.018510;-3.245639
0.018540;-0.756232
0.018570;1.081720
0.018600;2.117305
0.018630;2.000025
0.018660;1.295580
0.018690;0.298791
0.018720;-0.424023
0.018750;-0.201551
0.018780;0.981109
0.018810;2.597302
0.018840;3.591770
0.018870;4.217819
0.018900;4.278500
0.018930;3.619053
0.018960;2.709016
0.018990;2.286204
0.019020;2.216777
0.019050;2.357081
0.019080;2.574675
0.019110;3.661508
0.019140;4.453189
0.019170;4.585742
0.019200;4.529724
0.019230;4.683230
0.019260;4.820855
0.019290;4.576359
0.019320;4.453839
0.019350;4.367939
0.019380;4.184152
0.019410;3.846386
0.019440;3.401515
0.019470;3.064421
0.019500;2.988117
0.019530;2.583079
0.019560;2.226554
0.019590;2.247227
0.019620;2.089417
0.019650;1.200282
0.019680;0.621322
0.019710;0.626791
0.019740;0.623693
0.019770;0.424540
0.019800;0.668959
0.019830;1.022304
0.019860;1.117908
0.019890;0.633030
0.019920;-0.312094
0.019950;-1.469205
0.019980;-2.783853
0.020010;-4.357743
0.020040;-5.869843
0.020070;-6.824957
0.020100;-6.964149
0.020130;-6.396943
0.020160;-5.163982
0.020190;-3.472079
0.020220;-1.739506
0.020250;0.086633
0.020280;1.184773
0.020310;1.434587
0.020340;0.624681
0.020370;-1.064089
0.020400;-3.200212
0.020430;-5.238275
0.020460;-7.139044
0.020490;-7.890195
0.020520;-7.539555
0.020550;-6.267200
0.020580;-4.961507
0.020610;-3.528638
0.020640;-2.336712
0.020670;-1.432937
0.020700;-1.131875
0.020730;-1.172819
0.020760;-0.718467
0.020790;0.186301
0.020820;1.226624
0.020850;2.323403
0.020880;3.620116
0.020910;4.426254
0.020940;4.660316
0.020970;4.141572
0.021000;2.577056
0.021030;0.983154
0.021060;-0.862038
0.021090;-2.976079
0.021120;-3.751416
0.021150;-2.971691
0.021180;-1.403613
0.021210;0.523915
0.021240;2.822320
0.021270;4.874251
0.021300;6.293751
0.021330;6.743655
0.021360;6.629974
0.021390;5.922449
0.021420;4.527518
0.021450;3.247508
0.021480;2.556777
0.021510;2.672575
0.021540;2.872570
0.021570;3.265816
0.021600;3.413992
0.021630;2.931713
0.021660;1.745640
0.021690;0.152465
0.021720;-1.118951
0.021750;-1.361822
0.021780;-0.967221
0.021810;-0.101216
0.021840;1.082025
0.021870;2.148033
0.021900;2.601385
0.021930;2.614572
0.021960;2.152154
0.021990;1.267505
0.022020;0.136493
0.022050;-1.200183
0.022080;-2.560259
0.022110;-3.519404
0.022140;-4.420033
0.022170;-4.990142
0.022200;-4.860977
0.022230;-4.577728
0.022260;-4.229785
0.022290;-3.522927
0.022320;-2.186261
0.022350;-0.975986
0.022380;-0.018233
0.022410;0.510911
0.022440;0.038512
0.022470;-1.225838
0.022500;-2.956433
0.022530;-4.966113
0.022560;-6.772730
0.022590;-7.707625
0.022620;-7.396109
0.022650;-6.376991
0.022680;-4.944561
0.022710;-3.834749
0.022740;-3.036384
0.022770;-2.608314
0.022800;-2.810093
0.022830;-3.180444
0.022860;-2.609335
0.022890;-1.739522
0.022920;-0.575960
0.022950;0.518072
0.022980;1.103826
0.023010;0.944449
0.023040;0.039058
0.023070;-1.430650
0.023100;-2.802174
0.023130;-3.456733
0.023160;-3.552386
0.023190;-2.310500
0.023220;-0.143962
0.023250;2.239184
0.023280;4.009203
0.023310;4.981176
0.023340;5.114382
0.023370;4.720644
0.023400;3.617031
0.023430;2.384751
0.023460;1.658342
0.023490;1.152114
0.023520;0.747103
0.023550;0.854121
0.023580;1.289788
0.023610;1.557762
0.023640;2.081779
0.023670;3.777786
0.023700;6.079355
0.023730;7.673814
0.023760;8.224130
0.023790;7.859438
0.023820;6.693771
0.023850;4.794111
0.023880;2.862989
0.023910;1.221162
0.023940;0.155017
0.023970;-0.456363
0.024000;-0.322523
0.024030;0.157410
0.024060;0.531259
0.024090;0.370562
0.024120;-0.551804
0.024150;-1.573688
0.024180;-2.164250
0.024210;-2.168085
0.024240;-1.309308
0.024270;0.552639
0.024300;2.217755
0.024330;3.202181
0.024360;3.433919
0.024390;2.443458
0.024420;0.552161
0.024450;-1.913324
0.024480;-4.100650
0.024510;-5.372469
0.024540;-5.530793
0.024570;-4.693723
0.024600;-3.485628
0.024630;-1.934601
0.024660;-0.740991
0.024690;-0.189174
0.024720;-0.483184
0.024750;-0.993327
0.024780;-2.017151
0.024810;-2.991855
0.024840;-4.028522
0.024870;-4.766193
0.024900;-5.093711
0.024930;-4.976029
0.024960;-4.124944
0.024990;-2.620447
0.025020;-1.078076
0.025050;0.158062
0.025080;1.054179
0.025110;1.429923
0.025140;0.994828
0.025170;0.152645
0.025200;-0.715891
0.025230;-1.572527
0.025260;-2.590682
0.025290;-3.486733
0.025320;-4.107969
0.025350;-4.595337
0.025380;-4.816221
0.025410;-4.315045
0.025440;-2.715766
0.025470;-0.759806
0.025500;1.505737
0.025530;3.536489
0.025560;4.971010
0.025590;5.483651
0.025620;4.467681
0.025650;2.427565
0.025680;-0.001047
0.025710;-2.550475
0.025740;-4.242714
0.025770;-4.697128
0.025800;-3.814728
0.025830;-2.326081
0.025860;-0.451070
0.025890;1.499500
0.025920;2.940358
0.025950;3.499256
0.025980;3.244692
0.026010;2.911818
0.026040;2.596622
0.026070;2.119065
0.026100;2.107269
0.026130;2.639129
0.026160;3.062135
0.026190;2.773884
0.026220;1.898070
0.026250;1.057006
0.026280;-0.002207
0.026310;-1.004444
0.026340;-1.642020
0.026370;-1.615349
0.026400;-1.242856
0.026430;-0.595623
0.026460;0.363270
0.026490;1.469316
0.026520;2.456369
0.026550;2.956154
0.026580;3.204660
0.026610;3.163427
0.026640;2.458642
0.026670;1.624946
0.026700;0.905382
0.026730;0.367459
0.026760;-0.092191
0.026790;-0.316994
0.026820;-0.422003
0.026850;-0.611751
0.026880;-0.874156
0.026910;-0.951377
0.026940;-0.898301
0.026970;-1.021273
0.027000;-0.671591
0.027030;-0.068137
0.027060;1.134953
0.027090;2.113667
0.027120;2.980212
0.027150;3.305358
0.027180;2.717884
0.027210;0.812284
0.027240;-1.469519
0.027270;-3.889676
0.027300;-6.059750
0.027330;-7.225159
0.027360;-6.735693
0.027390;-5.011623
0.027420;-2.371591
0.027450;0.889155
0.027480;3.707937
0.027510;5.368570
0.027540;5.481030
0.027570;4.255936
0.027600;1.635208
0.027630;-1.739086
0.027660;-4.555325
0.027690;-6.055844
0.027720;-6.222010
0.027750;-4.828519
0.027780;-2.417584
0.027810;0.337490
0.027840;2.505045
0.027870;4.039182
0.027900;4.243568
0.027930;3.209938
0.027960;1.273496
0.027990;-0.380289
0.028020;-1.271507
0.028050;-1.145362
0.028080;-0.746221
0.028110;0.220110
0.028140;1.375528
0.028170;2.440817
0.028200;2.430012
0.028230;1.953317
0.028260;1.086660
0.028290;0.034349
0.028320;-0.622276
0.028350;-0.769679
0.028380;-0.793382
0.028410;-0.217584
0.028440;0.698214
0.028470;1.135902
0.028500;1.353677
0.028530;1.381456
0.028560;0.772067
0.028590;0.034831
0.028620;-0.456143
0.028650;-0.800635
0.028680;-0.818038
0.028710;0.093932
0.028740;1.552729
0.028770;3.013846
0.028800;4.121316
0.028830;4.487512
0.028860;4.397577
0.028890;3.520290
0.028920;1.597617
0.028950;-0.737878
0.028980;-3.087962
0.029010;-5.351686
0.029040;-6.710576
0.029070;-6.213006
0.029100;-4.528898
0.029130;-1.827579
0.029160;1.306717
0.029190;4.079601
0.029220;5.748951
0.029250;5.267223
0.029280;2.866135
0.029310;0.361179
0.029340;-1.895213
0.029370;-3.309246
0.029400;-3.585468
0.029430;-2.478857
0.029460;-1.294030
0.029490;-0.359410
0.029520;0.156869
0.029550;0.047186
0.029580;-0.658644
0.029610;-1.673091
0.029640;-2.673851
0.029670;-2.991240
0.029700;-2.618772
0.029730;-1.940884
0.029760;-0.519184
0.029790;1.198375
0.029820;2.478183
0.029850;2.766598
0.029880;2.269861
0.029910;0.848240
0.029940;-1.239772
0.029970;-3.431838
0.030000;-4.895731
0.030030;-5.240664
0.030060;-4.120475
0.030090;-1.972146
0.030120;0.955359
0.030150;3.971612
0.030180;6.390704
0.030210;6.999191
0.030240;6.011725
0.030270;3.737762
0.030300;0.700737
0.030330;-2.228184
0.030360;-4.005631
0.030390;-4.019569
0.030420;-2.420388
0.030450;0.312664
0.030480;3.603848
0.030510;6.193096
0.030540;6.473439
0.030570;4.823441
0.030600;2.616941
0.030630;0.041927
0.030660;-1.952663
0.030690;-2.472899
0.030720;-1.515826
