Time [s];Acceleration [m/s²]
0.000000;-15.970842
0.000030;3.912063
0.000060;21.081397
0.000090;33.281290
0.000120;37.888655
0.000150;34.320712
0.000180;23.933278
0.000210;10.210017
0.000240;-4.727927
0.000270;-19.478398
0.000300;-30.299669
0.000330;-34.438645
0.000360;-33.506715
0.000390;-29.422228
0.000420;-21.150080
0.000450;-9.953205
0.000480;1.893957
0.000510;13.049612
0.000540;21.809381
0.000570;27.194185
0.000600;28.777002
0.000630;26.306981
0.000660;20.420832
0.000690;11.140347
0.000720;0.741263
0.000750;-7.826392
0.000780;-13.818648
0.000810;-18.191999
0.000840;-19.880336
0.000870;-17.852473
0.000900;-12.738749
0.000930;-6.162905
0.000960;1.167550
0.000990;8.641381
0.001020;14.646859
0.001050;16.386096
0.001080;12.952016
0.001110;7.222337
0.001140;1.059743
0.001170;-6.116500
0.001200;-12.544210
0.001230;-16.731445
0.001260;-17.582637
0.001290;-15.507097
0.001320;-11.910908
0.001350;-7.691339
0.001380;-2.845916
0.001410;1.959515
0.001440;5.257435
0.001470;7.201345
0.001500;7.778492
0.001530;7.064735
0.001560;5.052859
0.001590;3.060967
0.001620;0.449088
0.001650;-2.766153
0.001680;-6.164414
0.001710;-9.143695
0.001740;-11.505462
0.001770;-12.382517
0.001800;-11.819746
0.001830;-10.061928
0.001860;-7.036731
0.001890;-2.335721
0.001920;2.957157
0.001950;7.517119
0.001980;9.991474
0.002010;10.055260
0.002040;7.706839
0.002070;3.066382
0.002100;-2.258487
0.002130;-6.816138
0.002160;-9.963553
0.002190;-11.224655
0.002220;-10.545295
0.002250;-8.186418
0.002280;-4.440896
0.002310;0.097464
0.002340;4.801128
0.002370;8.770982
0.002400;11.842243
0.002430;13.176543
0.002460;12.641121
0.002490;11.069899
0.002520;8.946557
0.002550;6.277698
0.002580;3.771435
0.002610;1.665694
0.002640;0.240078
0.002670;-0.668822
0.002700;-1.048613
0.002730;-1.054069
0.002760;-0.636440
0.002790;0.293675
0.002820;1.876102
0.002850;3.979611
0.002880;6.485114
0.002910;9.551554
0.002940;12.300403
0.002970;14.099631
0.003000;14.490478
0.003030;13.390635
0.003060;11.050279
0.003090;7.877783
0.003120;3.932318
0.003150;-0.095159
0.003180;-3.346940
0.003210;-5.361288
0.003240;-5.972587
0.003270;-5.611238
0.003300;-4.875756
0.003330;-4.113418
0.003360;-2.879951
0.003390;-1.230747
0.003420;0.848609
0.003450;2.802735
0.003480;4.311617
0.003510;4.441978
0.003540;3.021280
0.003570;0.648561
0.003600;-1.868874
0.003630;-3.903547
0.003660;-5.484277
0.003690;-6.527635
0.003720;-6.936681
0.003750;-7.375009
0.003780;-7.291602
0.003810;-6.888692
0.003840;-6.312371
0.003870;-5.828609
0.003900;-4.969635
0.003930;-3.706916
0.003960;-2.388632
0.003990;-1.521380
0.004020;-1.015618
0.004050;-0.851871
0.004080;-1.127037
0.004110;-1.760554
0.004140;-2.147631
0.004170;-1.829281
0.004200;-1.094016
0.004230;-0.957210
0.004260;-1.570965
0.004290;-2.635488
0.004320;-3.762909
0.004350;-4.470301
0.004380;-4.077732
0.004410;-2.932301
0.004440;-2.545057
0.004470;-2.833083
0.004500;-3.575295
0.004530;-4.364068
0.004560;-4.697771
0.004590;-3.986928
0.004620;-3.240742
0.004650;-2.658838
0.004680;-2.176227
0.004710;-1.555008
0.004740;-0.800479
0.004770;0.082640
0.004800;0.506487
0.004830;0.668053
0.004860;0.160189
0.004890;-1.538191
0.004920;-3.145957
0.004950;-3.412020
0.004980;-3.030873
0.005010;-2.708107
0.005040;-2.020745
0.005070;-0.728739
0.005100;0.592094
0.005130;1.287181
0.005160;1.644688
0.005190;1.912759
0.005220;2.510160
0.005250;2.857886
0.005280;3.374259
0.005310;3.848899
0.005340;4.199805
0.005370;3.868534
0.005400;3.066458
0.005430;1.539466
0.005460;-0.403689
0.005490;-1.864507
0.005520;-2.371677
0.005550;-1.495780
0.005580;0.506713
0.005610;3.369132
0.005640;6.749013
0.005670;9.851286
0.005700;12.080893
0.005730;13.060623
0.005760;12.533934
0.005790;10.813189
0.005820;7.980385
0.005850;4.821624
0.005880;1.784788
0.005910;0.102966
0.005940;-0.369974
0.005970;0.262402
0.006000;1.950884
0.006030;4.153780
0.006060;6.119468
0.006090;7.626135
0.006120;8.451734
0.006150;8.461134
0.006180;7.295695
0.006210;5.445438
0.006240;3.563207
0.006270;2.070186
0.006300;1.140648
0.006330;0.800956
0.006360;0.901628
0.006390;1.068763
0.006420;1.158962
0.006450;0.943360
0.006480;0.181059
0.006510;-1.000148
0.006540;-2.459122
0.006570;-4.161150
0.006600;-5.497914
0.006630;-5.932853
0.006660;-5.889666
0.006690;-5.132997
0.006720;-3.599250
0.006750;-2.257038
0.006780;-1.413674
0.006810;-1.107567
0.006840;-1.381259
0.006870;-2.519576
0.006900;-4.046120
0.006930;-5.761313
0.006960;-7.615188
0.006990;-9.183531
0.007020;-9.814350
0.007050;-9.266057
0.007080;-7.566973
0.007110;-4.805883
0.007140;-1.765329
0.007170;0.893146
0.007200;2.636227
0.007230;2.970693
0.007260;1.833246
0.007290;0.001774
0.007320;-2.012290
0.007350;-3.700503
0.007380;-4.476583
0.007410;-4.300924
0.007440;-3.629130
0.007470;-2.344757
0.007500;-1.413198
0.007530;-1.024043
0.007560;-1.122175
0.007590;-1.278657
0.007620;-1.425696
0.007650;-1.030237
0.007680;-0.293725
0.007710;0.563471
0.007740;1.780802
0.007770;2.872523
0.007800;3.412619
0.007830;3.375883
0.007860;2.149546
0.007890;0.304375
0.007920;-1.143622
0.007950;-2.415285
0.007980;-3.106036
0.008010;-2.688520
0.008040;-1.216766
0.008070;0.167613
0.008100;1.247569
0.008130;1.885422
0.008160;1.979188
0.008190;1.080909
0.008220;-0.096179
0.008250;-1.255288
0.008280;-1.773290
0.008310;-1.749344
0.008340;-0.983413
0.008370;0.176105
0.008400;1.166060
0.008430;1.538023
0.008460;1.324616
0.008490;1.121468
0.008520;1.060275
0.008550;1.356494
0.008580;2.422397
0.008610;4.642257
0.008640;8.332755
0.008670;13.429466
0.008700;18.848714
0.008730;23.546699
0.008760;26.895489
0.008790;27.252074
0.008820;21.355437
0.008850;8.436471
0.008880;-7.210655
0.008910;-19.988317
0.008940;-27.984003
0.008970;-28.465299
0.009000;-18.517819
0.009030;-1.501431
0.009060;14.162156
0.009090;24.763769
0.009120;28.975820
0.009150;25.157511
0.009180;11.783294
0.009210;-6.759150
0.009240;-22.593316
0.009270;-32.489769
0.009300;-37.530147
0.009330;-34.681244
0.009360;-23.247101
0.009390;-10.187698
0.009420;0.777764
0.009450;10.465046
0.009480;17.677808
0.009510;20.427728
0.009540;18.452371
0.009570;12.431816
0.009600;2.804820
0.009630;-7.666605
0.009660;-15.096307
0.009690;-19.237270
0.009720;-19.017795
0.009750;-11.645060
0.009780;0.388777
0.009810;12.357777
0.009840;22.209800
0.009870;26.496478
0.009900;25.155977
0.009930;19.478819
0.009960;7.170047
0.009990;-9.532209
0.010020;-20.531171
0.010050;-23.059937
0.010080;-21.152833
0.010110;-15.086100
0.010140;-7.061312
0.010170;-0.005821
0.010200;8.884646
0.010230;13.437939
0.010260;8.483240
0.010290;4.953502
0.010320;5.660390
0.010350;-3.385437
0.010380;-10.951889
0.010410;-0.133648
0.010440;0.320762
0.010470;-20.260198
0.010500;-29.973183
0.010530;-28.032714
0.010560;-26.798004
0.010590;-19.128339
0.010620;1.904272
0.010650;26.282689
0.010680;41.370349
0.010710;47.361253
0.010740;44.609529
0.010770;34.110420
0.010800;8.493671
0.010830;-23.236654
0.010860;-43.200538
0.010890;-57.051233
0.010920;-62.459451
0.010950;-49.925449
0.010980;-21.230222
0.011010;3.638826
0.011040;17.169387
0.011070;28.597300
0.011100;33.852402
0.011130;26.970290
0.011160;14.023610
0.011190;5.810315
0.011220;3.738398
0.011250;-1.767148
0.011280;-5.679929
0.011310;-4.411005
0.011340;-4.566216
0.011370;-10.769480
0.011400;-16.653808
0.011430;-16.447463
0.011460;-12.284709
0.011490;-7.893736
0.011520;0.255564
0.011550;12.216540
0.011580;21.512210
0.011610;24.814019
0.011640;24.823878
0.011670;21.512114
0.011700;14.691428
0.011730;5.471920
0.011760;-3.214029
0.011790;-9.466229
0.011820;-15.409244
0.011850;-19.905200
0.011880;-19.109997
0.011910;-14.524891
0.011940;-8.140061
0.011970;-0.036974
0.012000;9.479096
0.012030;16.371496
0.012060;16.633766
0.012090;11.728111
0.012120;5.442561
0.012150;-2.643542
0.012180;-12.210801
0.012210;-18.982633
0.012240;-20.580882
0.012270;-18.308196
0.012300;-13.535050
0.012330;-6.383214
0.012360;0.963765
0.012390;6.448738
0.012420;9.634799
0.012450;10.324161
0.012480;9.353576
0.012510;6.897473
0.012540;4.240769
0.012570;4.036446
0.012600;4.871332
0.012630;5.001959
0.012660;5.974086
0.012690;6.686603
0.012720;6.592737
0.012750;6.232804
0.012780;5.980381
0.012810;6.431050
0.012840;8.595078
0.012870;11.142081
0.012900;14.340476
0.012930;17.584295
0.012960;18.379583
0.012990;16.605058
0.013020;12.895438
0.013050;7.108643
0.013080;0.221061
0.013110;-6.733318
0.013140;-11.069730
0.013170;-10.499924
0.013200;-7.274702
0.013230;-2.936843
0.013260;2.660950
0.013290;8.580388
0.013320;12.136543
0.013350;12.089330
0.013380;9.221970
0.013410;5.059053
0.013440;-0.365797
0.013470;-5.971008
0.013500;-9.849997
0.013530;-11.242643
0.013560;-12.471458
0.013590;-13.573319
0.013620;-12.825241
0.013650;-10.984719
0.013680;-8.864110
0.013710;-5.753822
0.013740;-1.800346
0.013770;2.402818
0.013800;5.317720
0.013830;6.175265
0.013860;5.225907
0.013890;2.137426
0.013920;-3.247267
0.013950;-8.722085
0.013980;-12.583514
0.014010;-15.434788
0.014040;-16.083077
0.014070;-13.625022
0.014100;-8.717255
0.014130;-3.635831
0.014160;1.309766
0.014190;5.841273
0.014220;8.961662
0.014250;9.514756
0.014280;8.561796
0.014310;7.089897
0.014340;5.002996
0.014370;1.790231
0.014400;-0.975964
0.014430;-3.166947
0.014460;-5.170269
0.014490;-6.824384
0.014520;-7.116221
0.014550;-6.241949
0.014580;-4.328819
0.014610;-1.404576
0.014640;2.882253
0.014670;6.444991
0.014700;7.155540
0.014730;6.198169
0.014760;4.723422
0.014790;1.457093
0.014820;-3.073731
0.014850;-6.653242
0.014880;-9.006404
0.014910;-11.126932
0.014940;-12.408564
0.014970;-12.376026
0.015000;-10.785724
0.015030;-8.153876
0.015060;-5.258545
0.015090;-1.972982
0.015120;1.012927
0.015150;2.621186
0.015180;2.842491
0.015210;1.353231
0.015240;-1.620263
0.015270;-4.809462
0.015300;-7.722354
0.015330;-9.440977
0.015360;-9.437972
0.015390;-7.836939
0.015420;-5.172371
0.015450;-2.083723
0.015480;-0.196303
0.015510;0.451741
0.015540;0.949844
0.015570;1.193175
0.015600;1.261630
0.015630;1.815459
0.015660;2.699211
0.015690;3.494747
0.015720;4.195579
0.015750;4.347783
0.015780;4.337423
0.015810;4.203786
0.015840;3.366765
0.015870;1.716633
0.015900;1.096761
0.015930;2.208201
0.015960;3.881978
0.015990;5.255069
0.016020;6.404700
0.016050;7.175133
0.016080;6.959580
0.016110;5.523275
0.016140;3.613123
0.016170;2.187971
0.016200;1.294357
0.016230;1.209512
0.016260;2.166127
0.016290;3.455670
0.016320;4.739062
0.016350;5.663412
0.016380;5.858480
0.016410;5.284063
0.016440;4.751302
0.016470;4.357992
0.016500;3.481848
0.016530;2.525155
0.016560;1.859551
0.016590;1.129068
0.016620;0.384584
0.016650;0.589159
0.016680;1.295258
0.016710;1.973496
0.016740;2.476791
0.016770;2.647161
0.016800;1.850836
0.016830;0.338466
0.016860;-1.408424
0.016890;-3.179066
0.016920;-4.380477
0.016950;-4.342563
0.016980;-3.195207
0.017010;-2.112765
0.017040;-1.594243
0.017070;-1.467632
0.017100;-1.892161
0.017130;-2.964889
0.017160;-4.375327
0.017190;-5.566810
0.017220;-6.312250
0.017250;-6.270071
0.017280;-5.220840
0.017310;-3.434690
0.017340;-1.404671
0.017370;-0.000906
0.017400;0.342006
0.017430;-0.505848
0.017460;-2.454604
0.017490;-4.600049
0.017520;-6.294374
0.017550;-7.378600
0.017580;-7.690451
0.017610;-7.383596
0.017640;-6.474306
0.017670;-5.295574
0.017700;-4.403370
0.017730;-4.533559
0.017760;-4.949703
0.017790;-4.972697
0.017820;-5.215030
0.017850;-5.491578
0.017880;-5.412445
0.017910;-4.222022
0.017940;-3.093648
0.017970;-2.462837
0.018000;-1.488072
0.018030;-0.259370
0.018060;-0.631624
0.018090;-1.158925
0.018120;-0.826439
0.018150;-0.473707
0.018180;-0.582732
0.018210;-0.156728
0.018240;0.310918
0.018270;0.560748
0.018300;0.658672
0.018330;1.036494
0.018360;1.103032
0.018390;0.630880
0.018420;0.348996
0.018450;0.827856
0.018480;1.595974
0.018510;2.075811
0.018540;2.701605
0.018570;3.637220
0.018600;4.501738
0.018630;5.291925
0.018660;6.173888
0.018690;6.979815
0.018720;6.960331
0.018750;5.994545
0.018780;4.626394
0.018810;2.917272
0.018840;1.182651
0.018870;-0.146112
0.018900;-0.720287
0.018930;-0.836356
0.018960;-0.026639
0.018990;1.167494
0.019020;2.689797
0.019050;4.314883
0.019080;5.545535
0.019110;6.335621
0.019140;6.666452
0.019170;6.103518
0.019200;4.932570
0.019230;3.805401
0.019260;2.629918
0.019290;1.265796
0.019320;0.208075
0.019350;-0.327877
0.019380;-1.027715
0.019410;-1.825013
0.019440;-2.755871
0.019470;-3.904641
0.019500;-5.487644
0.019530;-6.991543
0.019560;-8.073518
0.019590;-8.266739
0.019620;-7.402059
0.019650;-5.534474
0.019680;-3.399911
0.019710;-1.184078
0.019740;0.181123
0.019770;0.465918
0.019800;-0.109005
0.019830;-1.411372
0.019860;-2.874791
0.019890;-3.775990
0.019920;-4.369754
0.019950;-4.862487
0.019980;-4.995198
0.020010;-4.719108
0.020040;-4.905052
0.020070;-5.086564
0.020100;-4.772068
0.020130;-4.259141
0.020160;-3.604878
0.020190;-2.551199
0.020220;-1.008192
0.020250;0.709457
0.020280;2.141357
0.020310;2.603547
0.020340;2.010043
0.020370;0.692081
0.020400;-1.324815
0.020430;-3.101097
0.020460;-3.442410
0.020490;-2.640454
0.020520;-1.029028
0.020550;1.159248
0.020580;3.193761
0.020610;4.377179
0.020640;4.620855
0.020670;4.553447
0.020700;3.849549
0.020730;2.980627
0.020760;2.719390
0.020790;2.514261
0.020820;2.037431
0.020850;1.353775
0.020880;0.618714
0.020910;0.132916
0.020940;0.142140
0.020970;0.331490
0.021000;0.146544
0.021030;1.374701
0.021060;3.754522
0.021090;4.514733
0.021120;4.150736
0.021150;3.895084
0.021180;3.207703
0.021210;2.289992
0.021240;1.371316
0.021270;0.890174
0.021300;1.111350
0.021330;0.923424
0.021360;0.492991
0.021390;0.430011
0.021420;-0.138884
0.021450;-0.823360
0.021480;-0.534339
0.021510;-0.143235
0.021540;-0.264612
0.021570;0.286909
0.021600;1.204420
0.021630;1.761124
0.021660;0.960739
0.021690;-0.716226
0.021720;-2.057082
0.021750;-3.012524
0.021780;-4.157899
0.021810;-4.956625
0.021840;-4.616820
0.021870;-2.087145
0.021900;4.092386
0.021930;13.678037
0.021960;24.537133
0.021990;35.102597
0.022020;44.501647
0.022050;49.992353
0.022080;47.660230
0.022110;34.866332
0.022140;8.295523
0.022170;-31.219877
0.022200;-71.937463
0.022230;-100.801933
0.022260;-113.034883
0.022290;-106.787356
0.022320;-79.432471
0.022350;-33.077755
0.022380;22.676389
0.022410;72.134233
0.022440;101.576034
0.022470;106.291881
0.022500;87.806022
0.022530;53.717202
0.022560;16.304570
0.022590;-18.114144
0.022620;-47.640699
0.022650;-68.194525
0.022680;-76.817705
0.022710;-73.663057
0.022740;-58.429345
0.022770;-31.321858
0.022800;1.458855
0.022830;28.958654
0.022860;44.612727
0.022890;48.303644
0.022920;46.432237
0.022950;39.118487
0.022980;23.275343
0.023010;7.472157
0.023040;-1.728197
0.023070;-9.212869
0.023100;-16.752179
0.023130;-21.200276
0.023160;-23.158789
0.023190;-24.144076
0.023220;-22.945668
0.023250;-18.256507
0.023280;-7.632770
0.023310;6.337003
0.023340;17.255923
0.023370;20.482940
0.023400;27.174640
0.023430;38.058506
0.023460;33.930896
0.023490;16.793781
0.023520;-0.859758
0.023550;-12.876539
0.023580;-27.237914
0.023610;-59.972760
0.023640;-91.563729
0.023670;-87.844539
0.023700;-62.500957
0.023730;-29.108574
0.023760;27.637820
0.023790;87.965710
0.023820;118.143679
0.023850;120.781769
0.023880;101.917387
0.023910;60.262070
0.023940;11.933833
0.023970;-30.080594
0.024000;-55.943443
0.024030;-62.451939
0.024060;-65.346690
0.024090;-63.936672
0.024120;-50.782991
0.024150;-34.704941
0.024180;-21.979574
0.024210;-3.157703
0.024240;19.392211
0.024270;35.149839
0.024300;44.739074
0.024330;51.997809
0.024360;52.493034
0.024390;42.116797
0.024420;19.407712
0.024450;-5.064092
0.024480;-24.069189
0.024510;-40.741013
0.024540;-53.123200
0.024570;-55.056744
0.024600;-48.222185
0.024630;-31.982873
0.024660;-6.234538
0.024690;22.781398
0.024720;47.248351
0.024750;59.044380
0.024780;56.720383
0.024810;46.434128
0.024840;28.736690
0.024870;5.717733
0.024900;-15.604317
0.024930;-31.054329
0.024960;-38.618532
0.024990;-39.360201
0.025020;-35.074328
0.025050;-25.904438
0.025080;-12.424713
0.025110;3.409338
0.025140;19.012881
0.025170;29.002631
0.025200;30.783141
0.025230;25.483004
0.025260;17.616827
0.025290;9.667203
0.025320;0.479414
0.025350;-8.775188
0.025380;-16.301551
0.025410;-21.045701
0.025440;-23.095876
0.025470;-24.255457
0.025500;-24.533700
0.025530;-21.619221
0.025560;-15.556025
0.025590;-4.766796
0.025620;11.243954
0.025650;26.247869
0.025680;34.190855
0.025710;34.447111
0.025740;29.042029
0.025770;19.590302
0.025800;6.096629
0.025830;-8.115015
0.025860;-18.952361
0.025890;-25.069086
0.025920;-25.465652
0.025950;-19.648556
0.025980;-10.323093
0.026010;0.370482
0.026040;11.464699
0.026070;21.659023
0.026100;29.163993
0.026130;31.533312
0.026160;28.460799
0.026190;22.302020
0.026220;15.136434
0.026250;7.103031
0.026280;-0.912243
0.026310;-7.031236
0.026340;-11.542697
0.026370;-14.567777
0.026400;-13.550330
0.026430;-9.339813
0.026460;-3.987417
0.026490;2.977739
0.026520;11.313117
0.026550;18.994089
0.026580;24.275075
0.026610;25.099955
0.026640;21.477520
0.026670;14.995197
0.026700;6.719742
0.026730;-2.763144
0.026760;-12.038165
0.026790;-19.643063
0.026820;-24.657300
0.026850;-26.178544
0.026880;-23.747766
0.026910;-18.094722
0.026940;-10.727178
0.026970;-2.108393
0.027000;6.007897
0.027030;11.734282
0.027060;14.081664
0.027090;12.813735
0.027120;8.367553
0.027150;2.094247
0.027180;-5.126909
0.027210;-11.616100
0.027240;-15.780640
0.027270;-17.744557
0.027300;-18.131108
0.027330;-16.512949
0.027360;-13.759010
0.027390;-11.021570
0.027420;-8.181790
0.027450;-4.308910
0.027480;0.155302
0.027510;4.506760
0.027540;8.448769
0.027570;10.952624
0.027600;10.964083
0.027630;8.249119
0.027660;3.061505
0.027690;-2.999264
0.027720;-8.840789
0.027750;-13.318848
0.027780;-15.040330
0.027810;-13.910659
0.027840;-10.775870
0.027870;-6.243601
0.027900;-0.402095
0.027930;5.355000
0.027960;9.310512
0.027990;11.126071
0.028020;11.391778
0.028050;9.716736
0.028080;6.579710
0.028110;3.485852
0.028140;0.950065
0.028170;-1.143136
0.028200;-3.180342
0.028230;-5.299475
0.028260;-6.518969
0.028290;-6.102887
0.028320;-4.792057
0.028350;-2.509226
0.028380;0.875972
0.028410;4.282461
0.028440;6.481795
0.028470;6.928737
0.028500;5.647587
0.028530;3.184468
0.028560;0.237823
0.028590;-2.190960
0.028620;-3.939950
0.028650;-4.742357
0.028680;-4.735738
0.028710;-4.259592
0.028740;-3.364993
0.028770;-2.244796
0.028800;-1.530796
0.028830;-0.933904
0.028860;-0.406883
0.028890;-0.083059
0.028920;0.458633
0.028950;1.242636
0.028980;1.895552
0.029010;2.390420
0.029040;2.751166
0.029070;2.336649
0.029100;1.309381
0.029130;0.050788
0.029160;-1.307196
0.029190;-2.269701
0.029220;-2.763981
0.029250;-2.738399
0.029280;-1.914355
0.029310;-1.042752
0.029340;0.097370
0.029370;1.359442
0.029400;2.507389
0.029430;3.487677
0.029460;4.587825
0.029490;5.155944
0.029520;4.582890
0.029550;3.160936
0.029580;1.505465
0.029610;-0.266292
0.029640;-1.302499
0.029670;-1.250185
0.029700;0.292632
0.029730;2.659965
0.029760;5.363327
0.029790;7.635037
0.029820;8.835360
0.029850;8.652413
0.029880;7.202566
0.029910;4.786622
0.029940;1.865624
0.029970;-1.183666
0.030000;-3.270536
0.030030;-3.855060
0.030060;-3.946371
0.030090;-3.533228
0.030120;-2.677319
0.030150;-1.733033
0.030180;-1.692146
